"2018-Mar-16,12:06:16",Drops,mL/min
Time(s),F1,F1
2.0558512210845947,1.5468045388626634
4.088924169540405,1.555421361779586
6.002058029174805,1.5894548092717475
7.81733512878418,1.6271529607530495
9.56738805770874,1.6618955878129014
11.227261066436768,1.6994349634425558
12.828410148620605,1.735211124536234
14.387599229812622,1.7681893687506696
15.918306112289429,1.797929993185925
17.404534101486206,1.8271100975512202
18.855621099472046,1.8551497092280578
20.272080183029175,1.8823919230521664
21.654283046722412,1.9090911442693648
23.022222995758057,1.9337837188095606
24.369784116744995,1.9573419186436007
25.668352127075195,1.9822074961458607
26.95786714553833,2.0053515253319
28.234429121017456,2.027312107309124
29.50236415863037,2.04797146679939
30.75747513771057,2.067790015768312
31.99075412750244,2.0874781423983144
33.21564817428589,2.1062361822028204
34.43910002708435,2.1237488767848065
35.65155911445618,2.140719842152804
36.8607292175293,2.1567668813831657
38.085318088531494,2.1709153067280575
39.30136799812317,2.1846567784637987
40.51601600646973,2.1976494427729967
41.7267050743103,2.210095425358104
42.93049907684326,2.222196388382049
44.13159513473511,2.2337737781521887
45.32568407058716,2.245084703885017
46.51609015464783,2.255993563756444
47.70456600189209,2.266449714597795
48.882381200790405,2.2768939905529875
50.05306816101074,2.287172479252234
51.22737216949463,2.2968189664443748
52.40052008628845,2.3060839816286474
53.57105612754822,2.3150560949315375
54.74575114250183,2.3234679832760277
55.91394519805908,2.3317975424228483
57.089667081832886,2.3394776467789486
58.258098125457764,2.347141503066799
59.42233920097351,2.354670009317097
60.59379816055298,2.361627828987277
61.75857400894165,2.3685780047126896
62.91148900985718,2.3757186859236814
64.05929613113403,2.3827923380165594
65.2059600353241,2.389658858110324
66.35116314888,2.396340809327378
67.5001471042633,2.402661430492745
68.64393210411072,2.4089529100576894
69.78824710845947,2.4150198204300533
69.7909300327301,2.4604916415280305
70.93924117088318,2.4654901449916724
72.08277606964111,2.4704930873909756
73.2312560081482,2.4751726227368245
74.386057138443,2.4794969258382795
75.53573822975159,2.4838573686713676
76.68544816970825,2.48808613047095
77.81949615478516,2.492691543699645
78.97342705726624,2.4965359532521334
80.12031412124634,2.5004894476178015
82.4111750125885,2.469567992070394
83.55825710296631,2.4737232102063813
84.70846009254456,2.477674600278469
85.84610414505005,2.481883157330037
86.9999852180481,2.4855176636873857
88.15553522109985,2.4890099010763227
89.31697916984558,2.4922472979824226
90.46000003814697,2.4959097933317334
92.7476270198822,2.4686345878252833
93.89318418502808,2.4723839330290422
95.03848218917847,2.4760496440966375
96.18620109558105,2.479565647498652
97.33540201187134,2.4829609269043127
98.47985100746155,2.4863969380035678
99.6245641708374,2.489747403809546
100.76949906349182,2.4930162632019623
101.93113708496094,2.495802629847583
103.07835721969604,2.4988756800906993
104.22183322906494,2.5019709586846948
105.36548900604248,2.5049947804528636
106.51516008377075,2.5078120315447934
108.81280422210693,2.484082658583709
109.98110914230347,2.4866088561277095
111.0414981842041,2.491500966071759
112.10493421554565,2.4962326766273093
113.1695990562439,2.5008483052002557
114.22993803024292,2.5054727765345293
115.29585814476013,2.509890681733492
116.36236500740051,2.5142149696028735
117.42384004592896,2.518568630393324
118.48447704315186,2.5228621289448223
119.55101013183594,2.5269548092220764
120.6150381565094,2.531027678355251
121.67933320999146,2.535023753521616
122.74331903457642,2.5389569261379674
123.80773520469666,2.5428136576401674
124.87080001831055,2.546632198667501
125.94074010848999,2.550247042564016
127.00530314445496,2.5539091043393296
128.06945419311523,2.5575185126197555
129.13445115089417,2.5610516562582686
130.20162320137024,2.5644841576482436
131.26922917366028,2.5678523605411443
132.33638405799866,2.5711749827687247
133.4124720096588,2.574272066371243
134.4631040096283,2.577807514953545
135.53101015090942,2.580959144409157
136.59494519233704,2.5841366201580507
137.6598482131958,2.58724678708355
138.71836018562317,2.590428545429433
139.77366399765015,2.5936216425298446
140.82791209220886,2.596786351277815
141.88688921928406,2.599817375866924
142.94673919677734,2.6027875983084185
144.00275707244873,2.6057834421268353
145.07059001922607,2.608523202048384
146.17855310440063,2.6105060687490966
147.33733105659485,2.6115580976025643
148.48461508750916,2.612795943683165
149.63211703300476,2.6140110008182615
150.77993822097778,2.6152020265593854
151.9377100467682,2.6162037053055816
153.09413504600525,2.617213258232227
154.2398521900177,2.618389438693572
155.38748121261597,2.619516043528945
156.541020154953,2.6205271921311195
157.68331217765808,2.6217105303713555
158.83611512184143,2.6227032792916525
159.878968000412,2.6254860489149414
160.92532300949097,2.6281755542914524
161.9543240070343,2.631112213968995
162.9424591064453,2.634672401252711
163.9681441783905,2.637585502763755
164.97751021385193,2.640723571566065
165.9969789981842,2.6436625693338693
167.0239360332489,2.6464470332683847
168.0487961769104,2.6492305218974823
169.07228016853333,2.652001851238117
170.10355401039124,2.654618256667437
171.1387801170349,2.657141763480034
172.17164611816406,2.659671382160814
173.20265102386475,2.662199436753813
174.23023200035095,2.66474993845537
175.2625892162323,2.66719784347854
176.2959291934967,2.669602197583591
177.33611512184143,2.671875380119018
178.37512707710266,2.6741396506129282
179.41239023208618,2.6764037833665983
180.44406604766846,2.6787248291795267
181.4876401424408,2.6808437181625067
182.53779411315918,2.6828416678269478
183.58000421524048,2.6849329375877655
184.62895107269287,2.686902553027457
185.67449712753296,2.6888991634488
186.72596502304077,2.6907880751238973
187.77479910850525,2.69269360106107
188.82103514671326,2.6946150337787538
189.873193025589,2.6964311909528007
190.93004202842712,2.6981610359845782
191.9873571395874,2.6998652813535675
193.03996205329895,2.7016167764061554
194.09540915489197,2.7033096881816454
195.15590405464172,2.7049143225110877
196.21168899536133,2.7065665797951257
197.2687451839447,2.7081836988512498
198.3303360939026,2.7097216219386127
199.3835871219635,2.7113565755505915
200.43867111206055,2.712949537048095
201.47981715202332,2.7147136012501947
202.54209208488464,2.7161761505328896
203.60254311561584,2.7176477834355772
204.6562340259552,2.7191939822826154
205.70562505722046,2.7207812126883533
206.78587222099304,2.721946107606756
207.83247900009155,2.723539663883577
208.88934206962585,2.7249834498988976
209.95815920829773,2.726257470337824
211.02041506767273,2.727603392379906
212.08188104629517,2.7289459955028548
213.14216899871826,2.7302903162419234
214.21076011657715,2.7315154461968563
215.2799961566925,2.7327202271585107
216.34919810295105,2.7339135304700357
217.41486501693726,2.7351395680956507
218.487939119339,2.7362608774183066
219.5708441734314,2.737248664605375
220.63585805892944,2.738448796653102
221.71158123016357,2.739505066131235
222.79094099998474,2.740506401470075
223.86107516288757,2.741611061920549
224.94018721580505,2.7425957434992885
225.98691415786743,2.7439641906292738
227.06386518478394,2.7449545945708995
228.14471411705017,2.745888733054728
229.21554017066956,2.7469341717894955
230.29548120498657,2.7478611247118883
231.3692591190338,2.7488526454276867
232.4462811946869,2.749796627052298
233.51862120628357,2.750787053648102
234.59874415397644,2.7516771341977284
235.67081904411316,2.7526530549315558
236.7528431415558,2.753504419840169
237.8320209980011,2.754381000721117
238.90651607513428,2.755303667786869
239.99138712882996,2.756098908020111
241.0388572216034,2.7573147651831493
242.11592411994934,2.7581828928739016
243.19608116149902,2.759008273469764
244.27277517318726,2.7598654803918548
245.35552310943604,2.760647045625648
246.43631315231323,2.76144368212243
247.51865816116333,2.762216008600176
248.60165119171143,2.7629744078823766
249.68890404701233,2.7636790775054743
250.77319312095642,2.764410307865828
252.9325041770935,2.7533827740557766
254.00532507896423,2.7542729656652316
255.08555102348328,2.7550756880592653
256.16834807395935,2.7558439803663
257.24608612060547,2.756660016461948
258.3244709968567,2.757462338938333
259.4064691066742,2.7582195712542896
260.4834430217743,2.7590237278149163
261.5632140636444,2.7597917489435444
262.64198112487793,2.7605640076833966
263.72162318229675,2.76132078671691
264.80556416511536,2.762026554487152
265.8905420303345,2.7627157942165335
266.9740631580353,2.7634145102825323
268.05330300331116,2.764151725415775
269.1387720108032,2.764819035326991
270.1961030960083,2.7657689782981922
272.00301718711853,2.759087041610732
272.9311800003052,2.761355444984913
273.8633770942688,2.763567761524688
274.805456161499,2.7656656116512752
275.7467691898346,2.767756816307733
276.69258999824524,2.7697886669276555
277.6354420185089,2.7718363131343167
278.58165216445923,2.773836661517884
279.5508351325989,2.7755953568586524
280.515762090683,2.777384037864291
281.4691061973572,2.7792748219106156
283.0901930332184,2.7745927599400537
284.0474350452423,2.776437674483445
285.0101480484009,2.778216864985214
285.97804522514343,2.7799336811821207
286.9260640144348,2.7818316287914673
287.8902130126953,2.783561106902449
288.8498010635376,2.785323019222115
289.8188600540161,2.7869821855260146
290.78950119018555,2.788615120838375
291.76309299468994,2.7902089727805848
292.7335891723633,2.7918217458769052
293.7064130306244,2.7934017222649263
294.6765341758728,2.7949969016142835
295.6460041999817,2.796587771369755
296.6166272163391,2.7981573649094496
297.5913941860199,2.7996777335543657
298.5661840438843,2.8011879599769807
299.54033613204956,2.802694324379423
300.512659072876,2.8042079911037647
301.4887320995331,2.8056769953204825
302.4575500488281,2.8072038534430024
303.42625308036804,2.8087220250327793
304.403391122818,2.81015266237577
305.37418818473816,2.811632525669079
306.3513309955597,2.813044739187018
307.32639718055725,2.814466989933922
308.2991440296173,2.81590142824594
309.26876616477966,2.8173553081521243
309.2713601589203,2.8276139101617255
310.24141001701355,2.829022727661882
311.21324610710144,2.830406517134105
312.2100250720978,2.83155545628572
313.19368505477905,2.832815737791204
314.177118062973,2.834070175096361
315.17429208755493,2.8351931690918653
316.1601800918579,2.8364103276366217
317.15294909477234,2.8375583533706252
318.1356301307678,2.8387892284456715
319.1297221183777,2.8399109740828776
320.11839509010315,2.8410738462686913
321.10121417045593,2.8422813733601027
322.0819802284241,2.8434996560517796
323.06845116615295,2.8446603086209468
324.04885506629944,2.8458671758347074
325.03187322616577,2.8470438631601405
326.02228116989136,2.848148895431242
327.0113980770111,2.849258482973659
328.0089831352234,2.85028779109557
329.0033710002899,2.8513385657655568
330.00549507141113,2.8523161403609745
331.00673818588257,2.8532953896232227
331.9823100566864,2.854489445049615
332.98098516464233,2.8554783677208095
333.9829339981079,2.85643337693837
334.9810140132904,2.857415674197057
335.98167419433594,2.8583701843348637
336.9809150695801,2.8593310686483466
337.97991919517517,2.860288274824229
338.9820611476898,2.8612133536394655
339.98279213905334,2.862144857031497
340.9805061817169,2.863096224860805
341.9813652038574,2.864015702774182
342.9826250076294,2.864926466692423
343.98688220977783,2.865806956553701
344.98713302612305,2.8667156114634356
345.9784162044525,2.8676933401929117
346.9882650375366,2.868511993892144
347.99256014823914,2.869371688793136
348.9929530620575,2.870258528749946
349.99727416038513,2.871108074800368
351.0006730556488,2.871960304874341
352.00265622138977,2.872819230557133
353.0048990249634,2.8736711666096832
354.00612211227417,2.8745265588295816
355.0139751434326,2.8753234280075444
355.98780512809753,2.8763906663362846
356.96383118629456,2.8774343792381294
357.942369222641,2.878452199547069
358.91182017326355,2.8795373735562153
359.8786129951477,2.8806379778227544
360.84651923179626,2.881723792746431
361.81527614593506,2.8827970203759414
362.79706621170044,2.883760916053016
363.7747092247009,2.8847524948519534
364.74684715270996,2.885782312353511
365.72773122787476,2.886737618871415
366.699636220932,2.8877585233327085
367.6629641056061,2.8888414218814837
368.63331723213196,2.8898635858493775
369.6054780483246,2.8908662437635737
370.57843708992004,2.8918574119302143
371.5576012134552,2.8927950780436804
372.5378141403198,2.8937196683984237
373.51789116859436,2.8946404591687416
374.4790201187134,2.8957029412655517
375.4453601837158,2.8967197769279314
376.4156880378723,2.897700692778398
377.3941991329193,2.8986137108448724
378.366357088089,2.8995706923926634
379.3408451080322,2.900504952707247
380.3121111392975,2.9014590061157266
381.2816560268402,2.9024213006515542
382.25770711898804,2.9033292967839066
383.2407591342926,2.9041796141782252
384.22239422798157,2.9050362934798257
385.4798650741577,2.903809255470866
386.5680742263794,2.9038611174667923
387.5793151855469,2.904489367450069
388.58548521995544,2.9051522584818006
389.5907452106476,2.9058185131884904
390.5925362110138,2.906507151961262
391.5929880142212,2.907202209551965
392.5929481983185,2.9078973660609675
393.5964300632477,2.9085629659192795
394.6010580062866,2.9092167309437644
395.6084280014038,2.9098470065858026
396.6135880947113,2.9104902974840683
397.61562609672546,2.9111531942620816
398.61805415153503,2.9118099090382863
399.62111711502075,2.912458701888386
400.6246180534363,2.913101061214203
401.6270411014557,2.9137480304877768
402.63531613349915,2.9143494198877895
403.6345012187958,2.9150134501565006
404.63720321655273,2.9156488593279652
405.63966608047485,2.9162828463755632
406.6398780345917,2.9169298538376465
407.64256620407104,2.917555963487413
408.64928913116455,2.918150188234494
409.65249514579773,2.918766550108405
410.65130615234375,2.919411145267966
411.6534481048584,2.920028984413633
412.65210819244385,2.920668466421442
413.6552941799164,2.9212728979951486
414.65809512138367,2.921877118172097
415.657653093338,2.922501224167812
416.6592700481415,2.9231078906735406
417.66112899780273,2.923709953402018
418.66262221336365,2.924311689272462
419.6616141796112,2.924927986086071
420.6634011268616,2.92552191776927
421.664183139801,2.9261200010220585
422.66811203956604,2.926693461758483
423.6728141307831,2.927258862583437
424.6746611595154,2.9278412717281577
425.6741850376129,2.9284369215151087
426.6716001033783,2.9290442572160895
427.6723880767822,2.9296256548951125
428.6724090576172,2.9302095806944495
429.67656922340393,2.93076255537047
430.67854619026184,2.9313278108872414
431.6801071166992,2.9318932680348184
432.6846430301666,2.9324359448355515
433.6841142177582,2.933010360073537
434.68840408325195,2.933549613979986
435.6908760070801,2.9340986245009786
436.69270300865173,2.9346494483893633
437.69591307640076,2.9351884758762856
438.6991560459137,2.935724817909634
439.7021231651306,2.9362605545462275
440.7004771232605,2.9368245944467297
441.70484709739685,2.9373460774224007
442.70822501182556,2.937871777659559
443.70990800857544,2.9384063246448893
444.71835803985596,2.9388937433585043
445.72228503227234,2.9394087843400927
446.72709608078003,2.9399156924264864
447.73048210144043,2.940429683993956
448.73401618003845,2.9409404066005056
449.74884605407715,2.941374973179895
450.76850509643555,2.9417760668889414
451.78021907806396,2.942227091554706
452.7964930534363,2.9426464657771896
453.80653619766235,2.9431043704012647
454.8164792060852,2.94356088929965
455.8298091888428,2.943993510183201
456.8396110534668,2.9444469513011864
457.84773421287537,2.9449091897724697
458.84861302375793,2.945415898925302
459.8559741973877,2.9458788751508522
460.8609142303467,2.946355306063809
461.86167001724243,2.9468563605834386
462.8646590709686,2.9473410278031857
463.8656852245331,2.947836073147151
464.86947321891785,2.948311470120048
465.8752250671387,2.9487723881475416
466.8814730644226,2.949228186251038
467.8868041038513,2.9496878046034207
468.8898460865021,2.9501598542716256
469.8923830986023,2.9506330595468726
470.8942120075226,2.951108687608587
471.90008902549744,2.951556976554719
472.9049301147461,2.952009825021846
473.9109561443329,2.9524533709532217
474.92335510253906,2.9528554132639298
475.92835807800293,2.9533016390875235
476.9382700920105,2.9537155819519936
477.94911909103394,2.9541219841249977
478.9616460800171,2.954516320005273
479.97459411621094,2.9549064000179297
480.9887900352478,2.9552871697817173
482.00198101997375,2.9556724994890926
483.0122971534729,2.956073806846211
484.02393102645874,2.9564653899762976
485.03570222854614,2.956854502484071
486.0461721420288,2.95724991242187
487.0545220375061,2.957656555520225
488.0584990978241,2.9580880215562595
489.0663511753082,2.9584942749033076
490.07202911376953,2.9589119840654403
491.0770561695099,2.9593319047232454
492.0842401981354,2.9597371364983593
493.0859820842743,2.96017338361595
494.0942351818085,2.9605688466730307
495.1024971008301,2.960962646289069
496.1124222278595,2.961344917352683
497.1184730529785,2.9617487174794466
498.12473702430725,2.9621496190180134
499.13556599617004,2.9625218091778827
500.1523880958557,2.9628569917294754
501.16424322128296,2.9632201819799215
502.1844141483307,2.9635328338971845
503.2008180618286,2.9638664057512485
504.2141001224518,2.9642169856753835
505.22699999809265,2.9645684019374547
506.23832511901855,2.9649276349180367
507.24910712242126,2.96528861042822
508.25915002822876,2.965652462757008
509.26602721214294,2.9660333092880293
510.27269315719604,2.9664138808495704
511.2828280925751,2.9667728244637055
512.2906370162964,2.96714382455451
513.3027231693268,2.967488640222009
514.3155961036682,2.967827558727833
515.3274571895599,2.968170972961283
516.3349761962891,2.9685380047105476
517.3514740467072,2.968852080358301
518.3738222122192,2.969131414529442
519.3942070007324,2.9694208738023624
520.4085240364075,2.969743823588637
521.4169590473175,2.970099021768608
522.4342300891876,2.970402608831885
523.4483811855316,2.9707227224165145
524.4579970836639,2.9710672897822716
525.4665942192078,2.9714162939702358
526.4796981811523,2.971738521741939
527.4911160469055,2.972069011794681
528.4989190101624,2.972418567936169
529.5125691890717,2.9727339662789762
530.5194721221924,2.973085971171877
531.5358231067657,2.973383789567358
532.5566160678864,2.973655668185576
533.5758399963379,2.97393525166149
534.5984530448914,2.9741949138533785
535.6144590377808,2.974490275826593
536.6364071369171,2.9747515799700586
537.6517381668091,2.9750485052904914
538.668653011322,2.975335563041039
539.6812651157379,2.975645262867528
540.6963760852814,2.975940049108462
541.7106761932373,2.9762381855381412
542.7224051952362,2.976549308700218
543.7424311637878,2.976813850145225
544.7637710571289,2.9770702204606097
545.7866661548615,2.977317147463856
546.8100731372833,2.9775603632510816
547.8264601230621,2.9778408287061207
548.8489890098572,2.978086928699152
549.8617460727692,2.9783850425980813
550.8777770996094,2.978664357526437
551.8900232315063,2.97896307379043
552.90527510643,2.979244500213746
553.9251902103424,2.9794998118306997
554.9502191543579,2.9797267266959224
555.9633750915527,2.9800164439378247
556.9878261089325,2.980244669971215
558.0123000144958,2.980471935756247
559.0321061611176,2.9807232565632877
560.0523271560669,2.9809714540026704
561.0740621089935,2.9812107045416534
